=~=~=~=~=~=~=~=~=~=~=~= PuTTY log 2022.10.17 00:35:13 =~=~=~=~=~=~=~=~=~=~=~=
ú414
410
405
404
407
414
423
433
441
445
447
446
442
436
429
423
418
413
419
431
417
408
412
414
401
401
416
418
403
404
406
405
395
402
423
413
400
406
426
429
410
419
432
422
410
432
432
401
409
441
455
441
434
450
451
444
444
463
466
450
454
467
464
455
447
450
460
452
456
454
444
444
455
458
441
440
468
476
467
451
451
446
441
476
541
589
627
650
646
553
415
385
424
464
473
471
478
465
452
466
482
469
461
471
472
472
471
480
478
465
474
485
482
476
474
487
478
463
475
486
473
486
496
499
490
478
476
478
475
474
475
470
450
455
463
462
446
450
452
441
426
426
432
423
418
425
428
416
410
415
424
404
398
421
426
402
401
415
422
403
394
407
403
389
397
403
393
396
410
410
392
378
405
418
394
378
385
389
382
364
360
368
364
361
362
357
346
361
367
345
336
347
340
325
337
383
436
479
535
550
477
339
268
290
326
319
329
347
337
321
320
342
339
325
331
340
330
313
322
341
336
328
332
336
321
319
341
344
331
327
340
324
316
349
358
345
324
326
328
312
323
330
328
311
300
314
320
297
281
289
300
300
296
296
283
268
264
267
277
275
286
296
287
276
275
282
272
261
268
272
267
280
283
275
264
266
281
291
279
278
287
295
291
291
291
283
266
268
278
261
250
266
276
270
263
266
262
263
270
279
279
266
257
261
269
299
357
436
474
442
363
249
202
215
263
292
288
272
275
279
265
262
282
287
274
272
284
283
276
282
293
297
280
281
296
291
280
295
305
291
285
301
316
306
290
299
309
296
296
301
302
293
298
308
300
277
281
290
287
275
282
288
279
271
276
279
276
264
273
280
271
273
286
285
285
274
280
293
285
284
293
290
284
286
289
287
284
289
304
302
289
297
306
295
288
300
311
304
289
296
300
277
279
290
288
277
286
301
300
290
283
292
289
272
273
290
293
315
370
441
486
487
442
325
228
232
293
316
310
302
311
314
294
290
309
324
311
316
333
321
308
317
321
320
318
320
321
319
318
333
336
325
332
348
340
322
327
346
346
332
335
342
332
311
319
341
338
325
328
328
319
314
325
329
315
303
315
316
299
300
318
311
300
310
318
310
303
313
324
314
305
321
325
313
310
330
326
307
308
326
322
303
313
324
328
320
321
334
333
319
322
338
337
331
339
342
324
312
317
328
316
309
323
319
309
320
333
328
307
311
327
326
313
311
325
323
344
410
495
518
504
472
358
255
245
298
343
340
325
334
333
310
310
336
344
321
323
336
341
332
338
346
340
332
336
348
342
335
347
357
338
336
357
351
332
341
356
357
335
337
348
347
338
342
346
340
330
336
340
333
318
328
333
321
313
321
328
317
309
317
321
310
316
337
332
314
313
327
326
320
320
332
332
315
311
335
334
325
336
341
321
311
323
340
329
328
341
335
309
321
341
336
328
332
337
332
329
346
356
350
339
342
346
339
332
336
346
330
318
332
338
322
322
336
330
319
329
342
340
316
318
337
338
365
435
501
526
518
457
336
255
264
319
348
332
327
344
347
338
334
339
335
330
338
352
340
329
337
354
344
332
342
346
340
343
360
365
350
341
357
367
352
350
357
358
344
347
351
339
331
338
347
347
344
353
350
335
334
349
349
327
320
331
333
326
324
331
333
328
328
338
331
315
316
332
337
324
324
329
331
327
331
339
334
323
322
338
331
320
333
343
324
312
318
330
322
323
334
330
321
321
330
329
326
325
330
324
318
330
337
321
311
320
341
341
336
349
337
324
336
352
341
319
322
332
320
312
314
325
313
310
330
337
320
310
316
320
304
301
320
341
372
422
492
525
477
369
269
247
269
307
333
318
310
318
316
297
297
322
327
308
303
323
331
315
307
318
333
329
323
335
327
311
321
333
324
319
332
337
333
331
337
340
330
318
327
333
318
318
329
317
299
314
325
324
303
305
314
305
295
306
312
313
296
304
310
291
283
305
315
303
296
308
307
292
291
296
304
296
300
312
303
291
290
310
307
287
295
315
306
287
298
305
293
293
308
306
292
294
309
312
291
290
309
308
296
305
316
308
296
309
320
302
301
319
321
313
312
326
337
324
319
334
335
326
320
331
327
308
313
327
323
308
313
322
317
302
317
333
325
307
320
329
325
364
437
495
521
499
421
293
243
268
324
351
330
321
336
335
319
327
339
337
331
335
339
336
329
346
356
341
340
360
343
329
345
363
351
339
352
362
358
349
355
366
354
347
359
362
345
334
342
347
347
341
352
354
326
325
348
353
332
329
340
335
317
325
336
322
304
317
338
330
315
336
346
329
323
336
338
326
320
330
339
328
328
336
332
319
321
339
333
315
329
339
334
327
331
337
336
333
339
346
332
321
333
339
330
331
346
344
328
323
339
340
330
337
348
338
328
335
350
342
330
342
352
344
350
364
357
339
334
357
368
354
339
338
333
325
334
346
345
331
336
341
338
335
342
343
333
338
357
391
431
486
546
540
464
345
289
298
325
354
361
354
348
355
361
355
344
357
372
359
350
363
370
359
352
364
368
356
358
372
386
373
360
373
380
372
375
390
385
368
371
379
372
369
376
378
362
356
371
380
359
352
363
364
357
358
373
370
346
353
363
351
346
356
370
364
356
361
373
368
357
366
369
358
366
388
391
368
360
377
382
373
379
406
405
378
368
389
392
374
375
399
404
398
394
402
402
395
397
411
403
392
406
420
407
403
412
407
399
413
428
425
417
427
437
425
422
429
440
440
434
441
451
437
429
446
452
444
434
440
445
434
430
444
450
437
434
444
435
426
435
452
446
436
474
528
578
619
622
570
446
362
380
421
434
446
459
447
429
429
446
444
428
427
441
436
421
436
440
427
427
437
441
431
429
428
430
418
418
431
432
418
417
425
421
408
404
405
406
400
399
401
392
381
383
387
381
367
365
368
356
344
350
353
343
333
343
340
325
331
340
329
320
324
331
317
311
322
319
301
301
318
325
307
303
308
308
299
296
308
307
291
291
299
290
280
283
298
298
276
286
301
277
262
282
288
276
272
283
284
266
267
275
266
257
269
287
287
272
274
280
271
249
248
262
260
249
254
255
246
236
250
265
240
235
256
254
230
231
252
284
328
388
438
425
348
230
169
181
218
247
257
238
220
229
239
233
232
240
241
235
237
247
245
230
237
256
245
227
235
244
246
228
236
255
254
250
263
268
250
245
260
264
252
245
260
256
242
236
247
257
242
240
249
240
222
228
239
236
225
229
236
229
229
238
247
231
229
233
237
226
225
240
250
238
236
242
251
245
239
248
252
244
252
259
254
248
260
268
255
244
257
272
267
255
267
274
262
262
278
273
257
270
295
298
279
281
300
294
278
288
294
279
268
284
290
276
271
286
286
281
296
311
307
281
282
297
303
306
351
412
464
488
473
399
265
228
261
300
314
307
308
313
304
304
317
320
303
300
317
320
313
310
320
326
322
325
326
323
322
333
338
336
336
353
353
341
338
347
355
347
339
348
351
337
330
345
355
339
332
340
338
335
343
343
326
311
316
334
329
319
329
328
314
318
332
334
324
330
340
329
319
327
341
341
334
334
344
333
324
336
345
343
330
336
345
328
329
342
353
345
343
349
349
336
336
347
349
337
345
360
364
345
350
367
361
354
364
374
357
346
351
354
350
347
355
355
343
340
352
354
347
352
363
357
349
359
385
428
484
546
570
517
393
295
288
319
350
369
364
356
353
362
357
357
364
378
374
358
355
368
361
354
365
376
376
371
370
369
361
368
385
390
382
375
379
387
373
366
381
381
366
370
382
378
363
365
386
380
354
355
360
348
341
349
354
347
339
350
351
337
336
345
336
324
344
358
357
341
338
351
345
331
337
352
346
341
343
348
338
331
343
356
341
336
350
346
331
336
358
360
338
337
349
347
338
348
351
337
329
347
362
357
342
355
361
353
357
370
362
342
344
352
346
336
338
352
347
340
346
347
341
333
340
351
342
320
335
363
386
421
492
553
549
482
362
273
270
319
356
357
337
328
350
351
341
347
352
342
336
348
365
360
346
344
348
351
344
359
361
350
358
369
369
354
355
364
363
357
360
372
363
356
359
357
359
348
357
359
343
334
347
352
341
331
346
338
320
331
343
336
318
323
328
324
309
324
342
332
314
322
329
323
320
337
344
325
323
331
328
325
319
337
340
323
326
334
331
324
331
340
332
326
330
339
329
318
324
346
341
328
337
333
321
323
340
343
331
330
344
343
332
342
361
357
343
336
339
339
334
343
345
318
316
340
347
332
327
333
339
321
317
331
327
321
346
396
449
493
535
521
420
280
257
293
325
339
345
335
317
329
349
345
328
330
343
334
329
346
356
350
342
343
352
355
348
353
356
346
339
345
368
366
356
366
364
351
347
368
371
354
354
366
350
335
344
358
350
333
330
340
341
331
334
333
323
325
334
336
323
317
326
332
321
317
332
340
330
324
328
331
320
328
341
340
328
331
335
330
327
335
346
331
326
337
345
337
323
344
354
340
329
344
354
337
336
350
344
334
341
357
358
337
339
360
352
343
356
365
361
357
366
372
370
366
381
384
362
346
363
375
363
366
377
368
355
365
372
363
362
375
382
368
362
379
403
438
484
546
571
526
422
322
303
325
369
399
387
375
381
389
383
375
389
397
389
382
393
403
393
386
402
407
408
398
406
417
401
397
407
421
409
412
422
414
403
413
420
418
414
417
419
408
404
417
418
397
392
413
416
395
386
388
389
382
382
392
389
374
376
384
380
379
392
397
378
374
385
388
379
376
389
396
378
373
389
385
378
385
388
380
370
384
394
385
374
378
384
381
375
381
378
359
359
380
389
375
362
364
364
359
364
375
366
359
356
366
364
355
360
373
370
364
372
379
372
362
373
376
357
349
354
349
337
344
365
360
339
347
359
346
332
343
361
346
332
342
363
393
440
507
553
518
411
295
272
292
318
343
345
331
323
335
340
325
330
342
339
332
336
342
332
332
345
351
333
321
334
344
335
329
344
348
339
338
349
349
339
344
350
345
331
339
356
340
317
323
345
335
322
327
319
306
308
317
318
305
297
301
309
299
298
306
303
289
295
308
300
291
307
314
299
287
300
312
302
293
299
300
292
291
304
312
291
283
305
309
300
295
302
305
293
293
305
300
288
301
307
294
288
296
311
301
292
301
299
294
290
296
301
293
292
302
303
297
304
311
307
301
307
314
301
302
317
328
316
306
313
312
299
302
321
321
300
298
305
303
298
297
301
304
301
305
317
300
277
297
320
336
381
448
496
503
460
360
260
238
268
299
314
299
306
317
310
300
309
321
309
301
318
326
315
301
313
333
321
316
329
335
326
324
331
332
334
342
353
345
336
341
351
346
338
338
345
341
342
342
339
320
315
325
336
326
316
321
323
314
310
320
323
308
303
311
312
301
306
310
310
298
304
321
321
305
308
315
312
305
310
314
309
299
310
314
303
304
319
314
302
296
304
306
296
304
310
300
283
294
308
291
286
297
306
297
291
291
295
274
264
289
295
278
276
286
287
280
277
285
278
263
269
278
274
264
264
273
268
262
274
279
263
270
294
289
269
262
275
275
258
256
267
260
252
251
255
245
240
253
260
248
246
251
255
239
234
246
261
288
342
401
443
429
368
262
191
182
219
247
243
227
240
255
248
234
248
252
233
231
253
249
232
236
252
252
243
242
254
259
254
254
262
266
258
262
263
259
260
272
269
260
253
263
275
256
256
265
258
243
245
257
250
236
244
251
250
237
231
231
232
230
236
240
227
233
244
254
245
237
237
241
236
246
256
252
246
256
261
258
249
257
268
265
248
251
270
268
265
270
271
262
267
281
281
270
268
284
288
274
262
278
284
274
272
284
283
273
291
298
284
266
281
292
284
285
289
292
288
286
288
290
286
295
306
301
293
296
303
294
292
308
319
306
303
314
327
317
310
324
341
337
325
336
338
323
326
338
331
313
318
332
329
314
324
338
323
304
320
336
328
314
329
359
391
444
517
551
522
435
323
277
284
312
345
349
329
328
351
350
333
336
355
355
346
356
365
358
354
359
370
360
359
371
373
367
367
376
373
368
380
387
385
376
378
385
386
377
390
399
386
371
373
383
376
360
366
371
363
353
364
365
346
345
357
355
339
341
358
362
351
345
355
352
334
349
368
353
342
350
360
352
345
351
357
352
353
368
367
352
354
364
362
357
367
367
355
351
357
367
362
347
362
377
367
353
367
377
369
363
372
369
360
359
363
364
365
368
380
373
362
360
380
375
358
370
385
378
357
367
386
373
356
374
383
373
371
382
382
364
374
398
391
371
374
392
394
380
383
387
375
363
370
385
370
358
370
376
366
366
385
383
359
347
369
391
409
453
516
553
534
497
387
297
294
340
379
374
367
374
376
363
359
375
384
375
370
384
381
362
363
391
395
372
372
392
390
377
380
396
385
383
398
397
381
376
393
405
393
382
396
401
383
388
393
385
380
378
388
379
361
358
366
364
355
362
365
348
343
357
363
347
340
354
360
354
354
365
366
345
332
356
354
342
353
371
366
343
339
355
351
346
359
368
354
343
355
365
353
345
351
357
351
348
358
353
336
344
356
350
336
353
367
351
338
354
358
345
341
348
355
345
341
345
352
342
349
369
361
341
351
365
359
348
359
370
360
349
361
371
352
339
348
357
351
341
341
342
337
339
347
343
333
340
347
345
336
341
385
437
480
523
538
492
365
279
280
301
321
346
354
347
336
341
347
335
328
344
352
353
350
350
348
338
344
353
355
345
354
358
353
343
359
368
352
354
367
363
353
361
367
363
360
357
359
355
345
350
361
346
334
346
347
337
314
322
344
329
315
319
333
323
313
323
328
318
317
325
325
321
327
332
326
315
319
333
335
322
335
344
330
322
332
337
323
324
339
338
322
322
334
337
334
327
337
333
319
327
350
342
325
329
335
328
320
330
337
331
328
336
333
317
320
345
350
332
322
338
346
332
334
356
355
343
342
347
346
335
338
344
337
328
334
345
327
316
334
339
318
311
328
346
326
319
327
328
325
362
424
481
520
533
494
375
261
256
297
329
342
336
331
322
324
332
334
326
323
335
341
332
333
340
343
337
342
353
344
330
345
360
349
340
346
360
351
349
360
358
337
347
369
370
353
349
357
350
337
343
357
341
323
324
341
336
321
325
333
318
313
318
328
318
311
323
323
292
310
338
337
319
316
327
321
313
326
335
328
313
318
332
327
318
323
333
321
318
331
330
321
318
331
335
325
324
343
332
315
319
334
331
317
321
334
329
321
327
335
332
324
333
342
327
323
334
335
341
333
343
343
336
342
351
349
339
344
353
345
326
328
339
338
332
334
335
325
317
331
327
316
320
329
324
321
330
331
326
354
418
487
529
531
489
383
270
252
297
329
332
319
323
336
327
321
340
351
336
328
342
341
328
331
353
351
337
341
353
347
338
346
361
360
356
358
363
353
353
363
366
357
360
370
360
343
352
364
359
348
350
352
337
328
351
363
340
327
333
335
319
314
326
337
317
311
320
340
333
329
342
338
329
331
341
340
327
328
334
332
327
343
347
327
314
319
347
342
331
338
346
329
330
348
345
332
332
341
341
334
338
347
340
331
337
348
346
339
347
350
341
328
333
348
338
340
355
355
341
339
347
356
347
350
362
363
362
362
360
354
356
363
359
345
343
346
347
339
336
348
348
341
339
349
352
337
335
345
339
338
354
409
462
507
545
551
469
319
265
302
331
350
362
353
340
335
345
347
343
344
355
360
349
351
363
362
355
356
363
359
352
358
373
366
359
367
373
367
363
381
385
371
365
375
378
365
361
372
370
358
367
374
360
344
346
359
347
335
347
354
337
325
332
334
325
333
345
339
321
323
341
343
331
331
342
337
331
340
347
332
327
337
346
339
323
329
342
332
329
344
349
333
328
336
339
329
326
334
336
333
340
343
338
322
327
340
329
326
339
336
321
316
341
354
335
329
340
344
332
331
339
341
331
344
360
347
327
345
357
349
340
342
345
341
335
342
344
332
325
321
332
333
332
345
342
325
325
329
333
336
380
437
491
510
501
440
306
242
279
322
330
332
336
339
330
317
332
337
333
335
343
337
324
328
347
347
334
336
351
345
330
341
350
345
346
355
358
351
342
350
359
348
350
364
357
340
340
351
354
332
333
345
338
332
337
335
320
308
319
323
316
308
319
319
300
305
318
312
307
317
325
317
300
309
326
322
303
308
321
315
306
315
328
317
305
312
321
326
319
323
327
316
314
320
318
302
313
329
321
310
316
329
322
309
315
325
320
313
321
329
322
313
325
328
318
324
326
330
323
323
340
343
328
331
342
344
329
326
336
324
314
325
333
323
314
321
329
318
313
329
336
329
317
320
327
334
377
445
492
512
498
438
311
257
276
313
327
331
337
337
318
313
331
343
332
326
332
336
333
342
348
342
329
341
354
347
336
344
355
350
342
352
362
356
357
361
358
348
347
359
368
350
336
353
353
343
342
352
347
333
332
342
334
321
327
334
322
313
324
332
326
316
320
324
316
319
334
323
309
324
338
334
325
322
338
329
317
324
339
330
319
329
334
328
332
337
334
328
322
331
326
319
331
335
330
323
319
333
339
330
329
332
325
319
332
337
334
329
333
341
330
318
337
348
337
339
352
353
336
330
341
334
327
328
335
325
322
329
336
327
319
329
333
323
319
328
330
316
315
340
371
412
476
535
539
475
363
278
265
288
331
347
336
330
333
328
328
327
334
338
334
328
341
345
335
342
353
344
333
337
351
350
338
346
358
350
344
358
371
362
347
363
370
353
349
364
358
341
340
359
356
343
336
348
343
327
331
341
330
318
323
327
316
308
322
331
319
317
330
328
322
316
326
327
316
317
331
334
317
325
333
327
315
328
335
323
322
333
339
329
321
326
336
327
320
331
333
322
321
334
332
313
317
339
338
324
329
344
335
327
338
341
331
329
344
352
337
324
340
353
348
346
353
360
355
348
365
366
348
340
350
353
338
344
354
353
341
347
356
352
347
359
368
354
351
385
434
484
544
587
560
464
344
315
340
364
379
386
388
377
392
403
393
385
393
407
400
401
414
415
407
406
425
436
425
424
435
439
439
437
448
446
439
453
467
460
456
463
469
461
460
470
467
458
453
457
459
451
455
464
462
444
438
447
450
435
440
457
447
430
439
452
438
427
437
451
442
439
445
445
428
426
440
443
424
418
434
431
419
415
423
423
414
416
423
410
395
406
416
399
385
391
388
377
378
389
389
373
363
365
362
358
363
362
349
344
343
348
343
330
331
347
339
324
330
330
310
315
326
309
285
280
287
285
268
265
266
272
262
257
264
253
241
250
258
242
226
231
240
269
314
374
411
390
322
203
137
140
172
203
212
202
186
194
194
185
187
188
176
160
170
180
167
164
171
172
160
158
162
166
156
161
165
160
144
139
157
162
151
150
161
153
135
145
145
135
130
135
127
114
109
121
119
101
101
105
101
96
99
99
99
98
90
86
90
89
87
86
88
98
99
93
90
92
94
99
94
91
99
98
102
91
90
102
112
99
92
99
108
103
103
118
133
114
100
121
130
117
113
121
130
123
114
115
130
126
125
131
133
126
126
140
139
132
139
154
150
148
170
172
152
154
172
169
152
154
166
172
157
150
162
169
167
172
187
188
168
171
185
190
185
182
206
244
297
363
403
375
288
192
149
154
193
229
224
210
211
225
221
215
217
231
230
224
233
245
241
240
250
264
262
255
256
270
262
257
270
281
275
276
286
284
284
298
312
306
293
299
317
308
288
292
305
300
293
304
306
292
288
301
307
289
290
307
300
283
290
309
314
301
299
312
313
301
315
323
313
311
322
332
312
314
334
335
318
325
345
345
330
338
351
349
336
337
353
356
347
351
360
353
350
362
366
362
363
370
379
367
357
375
381
370
370
379
386
378
376
393
397
395
402
405
397
378
381
396
395
390
399
406
398
382
391
403
391
392
409
410
393
394
406
414
430
485
549
598
602
557
454
352
338
377
417
420
406
405
412
401
402
417
421
401
405
413
415
406
409
428
424
414
422
430
422
415
428
436
428
417
430
438
425
424
435
440
432
433
436
436
425
426
437
433
415
412
416
412
400
412
424
408
396
395
395
394
399
406
415
399
390
400
405
399
395
406
404
390
399
409
407
398
399
413
404
393
401
407
398
391
404
408
402
402
405
409
403
397
410
410
393
398
413
405
391
396
411
405
392
399
411
400
388
392
404
399
394
401
406
397
391
411
419
405
396
406
414
403
396
403
401
383
379
391
387
384
391
395
374
362
384
406
391
377
381
380
388
433
496
552
580
568
519
400
308
316
365
384
382
386
395
383
369
381
390
380
376
382
388
380
367
388
400
382
370
380
390
386
395
401
391
380
387
397
391
381
385
402
396
376
376
400
389
373
386
388
374
372
382
370
351
353
362
359
347
347
356
347
336
337
343
338
331
335
346
339
338
349
348
339
339
347
344
331
327
350
352
338
340
352
336
326
339
349
335
316
337
352
338
324
337
346
335
331
339
346
331
326
341
341
323
336
351
345
329
337
359
353
338
333
348
349
343
344
353
349
353
371
368
346
347
356
353
333
327
342
346
336
346
355
334
317
324
337
332
332
342
343
330
322
327
331
334
356
414
473
517
536
510
393
280
265
321
349
334
330
338
324
318
327
345
339
331
341
348
339
334
348
353
338
332
342
353
351
349
367
362
340
343
347
350
349
372
379
368
348
372
376
344
336
352
355
339
336
369
370
338
337
348
343
329
317
323
333
330
327
328
315
301
303
315
318
315
326
339
317
299
323
334
323
317
318
323
322
318
321
319
311
318
336
330
304
308
333
310
302
321
322
321
310
325
328
312
304
329
344
314
312
330
316
304
313
327
320
307
312
331
336
321
329
350
355
332
344
345
329
323
337
339
325
313
323
331
318
309
328
346
332
326
335
332
323
327
325
310
307
339
381
421
468
518
501
401
295
261
283
307
332
343
338
318
332
351
334
308
320
339
330
324
338
353
352
347
350
354
340
333
339
352
349
352
367
365
351
362
380
378
354
357
374
360
352
362
380
372
351
360
372
362
350
351
373
365
351
356
355
339
342
363
345
327
341
364
366
356
349
358
354
350
365
381
362
352
356
371
367
353
374
389
368
364
392
401
375
364
388
390
375
376
397
387
377
384
400
400
380
400
416
405
390
408
411
399
398
406
419
416
413
435
432
416
420
433
418
405
415
427
421
408
414
416
414
414
409
418
421
412
436
440
415
415
420
432
435
466
543
605
614
571
483
377
345
387
437
439
430
424
424
412
416
421
420
416
408
434
439
405
408
433
437
419
419
425
412
393
423
451
418
394
428
444
429
417
419
416
412
404
434
437
401
382
405
419
395
384
402
408
356
351
364
360
354
372
372
355
348
352
364
335
317
343
355
336
336
352
354
320
314
348
344
323
328
352
331
312
323
341
337
314
324
340
331
297
312
312
310
328
338
316
291
288
326
325
298
291
320
306
274
291
318
312
293
284
316
307
302
328
343
323
292
300
313
290
283
298
310
275
276
312
316
289
287
286
289
287
313
331
300
271
303
322
347
395
483
511
469
380
280
237
252
293
344
340
287
269
304
311
289
288
314
302
268
297
330
319
293
296
302
296
287
298
326
308
292
320
332
311
292
303
318
312
337
350
322
306
304
319
311
307
315
313
285
272
315
321
284
271
289
287
259
273
293
278
235
249
290
295
260
255
288
276
245
257
291
288
256
254
294
306
274
259
282
275
259
285
278
255
259
286
290
261
257
282
275
256
263
275
268
252
262
268
242
238
293
312
275
264
275
274
227
219
262
258
206
212
239
227
198
212
231
225
214
240
256
224
218
241
268
232
223
255
271
238
229
260
275
256
273
349
403
424
441
441
314
177
194
256
266
260
287
306
279
249
288
298
284
270
279
302
288
286
316
300
274
300
329
312
290
302
331
311
291
314
328
310
309
330
356
337
313
329
345
320
310
333
340
298
298
329
324
288
306
341
323
295
310
336
318
292
303
318
303
298
317
329
309
292
310
331
320
309
333
348
311
305
345
341
311
320
335
327
316
321
346
335
312
339
346
313
314
345
345
314
306
344
345
312
315
335
341
318
324
355
361
326
332
365
351
326
355
365
325
313
344
356
328
306
347
353
322
324
346
345
331
334
349
346
334
324
333
330
337
391
475
521
525
511
426
300
264
309
353
352
336
353
349
322
339
379
381
344
335
356
357
338
351
368
345
342
365
384
354
337
372
385
354
352
385
393
375
370
391
385
362
361
390
367
344
372
389
375
342
359
380
357
340
360
365
328
319
358
365
333
321
355
355
320
322
348
348
320
331
356
353
320
338
361
347
330
349
366
353
336
356
356
332
333
352
355
323
329
364
369
328
320
351
355
340
352
370
336
312
343
373
349
330
356
365
339
332
356
367
338
330
378
391
354
333
372
364
325
337
364
351
328
338
357
331
313
334
358
347
326
350
360
319
308
350
356
355
400
483
523
518
490
424
308
268
310
357
345
331
346
357
331
319
339
358
330
321
353
345
329
329
352
362
335
336
361
357
340
354
369
356
330
340
381
361
343
358
373
353
351
371
376
345
344
377
377
337
326
355
350
328
330
344
337
309
319
341
327
311
331
348
314
303
336
348
317
311
336
342
312
311
336
335
308
322
343
341
321
338
348
330
310
332
353
324
309
338
339
322
330
347
351
317
306
340
347
318
326
349
344
319
330
342
338
311
319
338
340
326
346
356
341
325
351
375
351
326
340
354
327
321
343
346
319
314
338
342
323
330
347
335
313
332
347
325
304
330
368
398
437
504
535
495
408
316
283
284
310
355
359
322
313
350
355
329
329
353
336
311
342
371
343
314
342
360
335
331
360
371
347
342
372
370
332
332
371
380
351
352
375
356
333
355
374
349
333
354
369
348
327
344
353
333
318
341
340
310
306
336
332
309
323
346
324
297
314
355
340
309
323
334
312
303
326
344
324
319
349
341
314
315
347
343
312
323
348
332
312
329
351
336
312
326
341
319
303
331
349
322
310
343
347
307
306
342
346
320
314
343
343
322
328
362
349
320
333
357
340
322
338
345
333
316
338
349
321
305
333
344
320
311
333
336
315
311
351
336
301
326
365
389
414
481
540
517
421
320
284
280
306
347
350
314
307
336
343
321
325
348
334
308
327
361
344
321
336
358
340
315
346
363
339
327
350
358
345
331
344
353
337
346
379
369
331
340
366
357
332
344
366
348
322
326
343
327
326
353
363
321
311
348
343
306
302
339
349
324
316
344
344
324
339
356
342
321
332
350
329
325
354
355
313
306
360
370
328
323
365
363
330
322
356
361
328
338
363
350
321
324
368
346
309
334
352
336
333
357
357
327
309
334
355
334
324
349
349
332
343
369
367
336
339
370
361
345
347
367
344
330
348
357
331
323
360
361
338
337
352
348
324
330
346
336
325
357
409
449
484
539
553
468
335
287
319
326
323
347
359
348
340
353
343
328
335
372
371
331
334
360
361
332
346
380
369
338
358
372
356
351
373
369
356
356
379
381
351
352
375
380
346
354
387
376
337
339
365
356
338
339
353
343
315
340
356
313
295
322
340
309
302
348
345
308
306
343
347
311
315
338
325
297
303
351
337
314
332
346
318
299
327
348
328
319
337
326
307
323
342
334
305
309
342
329
305
319
348
328
299
324
361
333
312
338
347
319
309
328
347
324
314
340
361
341
334
363
359
319
326
352
338
316
319
337
318
299
324
354
332
313
332
337
312
303
329
335
298
298
348
386
406
449
518
523
439
317
281
279
290
329
355
323
299
330
343
320
309
334
336
317
311
339
346
319
325
352
338
315
334
362
352
327
334
367
356
328
343
369
354
332
355
367
350
335
359
360
331
333
360
352
321
319
344
337
310
308
339
322
290
302
333
322
296
321
339
315
293
314
323
294
298
331
328
305
306
331
334
310
302
333
327
302
314
334
324
302
320
338
319
305
335
338
308
303
323
330
306
298
318
327
307
312
346
327
293
309
333
323
309
336
350
321
303
327
352
330
315
333
346
324
318
336
345
311
310
334
332
314
315
346
336
300
314
341
322
298
325
339
316
297
326
367
396
445
519
534
449
333
279
278
284
318
346
327
294
312
329
312
296
318
338
303
289
318
331
310
299
319
318
295
288
323
325
292
283
313
317
294
295
313
310
288
303
334
298
261
289
306
270
256
267
269
249
239
261
262
231
223
243
241
200
204
237
220
183
200
209
196
167
187
216
188
162
187
204
171
149
168
176
155
152
172
175
147
140
166
155
132
144
166
154
127
143
169
138
117
148
157
132
118
150
154
134
118
137
143
110
105
146
152
115
104
150
148
117
124
154